% 
% DIFFERENTIAL SOURCE COUNTS OF PROTOSPHEROIDS @ 150GHz
% 
% COLUMN 1 : log10[S (Jy)]
% COLUMN 2 : log10[dN/dlgS (deg^{-2})] 
% 
   -6.000000        6.253657
   -5.900000        6.197919
   -5.800000        6.142182
   -5.700000        6.086444
   -5.600000        6.030707
   -5.500000        5.974969
   -5.400000        5.919231
   -5.300000        5.863494
   -5.200000        5.807756
   -5.100000        5.752019
   -5.000000        5.696281
   -4.900000        5.640544
   -4.800000        5.584806
   -4.700000        5.529069
   -4.600000        5.473331
   -4.500000        5.417593
   -4.400000        5.362042
   -4.300000        5.307480
   -4.200000        5.254815
   -4.100000        5.204361
   -4.000000        5.156581
   -3.900000        5.111134
   -3.800000        5.067819
   -3.700000        5.025753
   -3.600000        4.984032
   -3.500000        4.941507
   -3.400000        4.896734
   -3.300000        4.848685
   -3.200000        4.795737
   -3.100000        4.737386
   -3.000000        4.672319
   -2.900000        4.600866
   -2.800000        4.522522
   -2.700000        4.438564
   -2.600000        4.349658
   -2.500000        4.257864
   -2.400000        4.165092
   -2.300000        4.073710
   -2.200000        3.986510
   -2.100000        3.905393
   -2.000000        3.833113
   -1.900000        3.770081
   -1.800000        3.717474
   -1.700000        3.673148
   -1.600000        3.634788
   -1.500000        3.597156
   -1.400000        3.553158
   -1.300000        3.495606
   -1.200000        3.413690
   -1.100000        3.301054
   -1.000000        3.144199
   -0.900000        2.936279
   -0.800000        2.656898
   -0.700000        2.298213
   -0.600000        1.837981
   -0.500000        1.278730
   -0.400000        0.610340
   -0.300000       -0.154124
   -0.200000       -1.028006
   -0.100000       -2.006921
    0.000000       -3.100500
    0.100000       -4.289515
    0.200000       -5.586021
    0.300000       -7.008415
    0.400000       -8.631440
    0.500000      -10.502341
    0.600000      -12.717749
    0.700000      -15.299930
    0.800000      -18.256742
    0.900000      -19.418613
    1.000000      -19.389000
    1.100000      -19.362440
    1.200000      -19.339630
    1.300000      -19.319275
    1.400000      -19.300743
    1.500000      -19.286316
    1.600000      -19.273198
    1.700000      -19.260641
    1.800000      -19.250202
    1.900000      -19.240189
    2.000000      -19.230782
    2.100000      -19.222479
    2.200000      -19.215236
    2.300000      -19.208105
    2.400000      -19.202141
    2.500000      -19.200659
    2.600000      -19.200659
    2.700000      -19.200659
    2.800000      -19.200659
    2.900000      -19.200659
    3.000000      -19.200659
    3.100000      -19.200659
    3.200000      -19.200659
    3.300000      -19.200659
    3.400000      -19.200659
    3.500000      -19.200659
    3.600000      -19.200659
    3.700000      -19.200659
    3.800000      -19.200659
    3.900000      -19.200659
    4.000000      -19.200659
    4.100000      -19.200659
    4.200000      -19.200659
    4.300000      -19.200659
    4.400000      -19.200659
    4.500000      -19.200659
    4.600000      -19.200659
    4.700000      -19.200659
    4.800000      -19.200659
    4.900000      -19.200659
    5.000000      -19.200659
    5.100000      -19.200659
    5.200000      -19.200659
    5.300000      -19.200659
    5.400000      -19.200659
    5.500000      -19.200659
    5.600000      -19.200659
    5.700000      -19.200659
    5.800000      -19.200659
    5.900000      -19.200659
    6.000000      -19.200659