% 
% NORMALIZED DIFFERENTIAL SOURCE COUNTS OF SPIRALS & STARBURSTS @ 0.61, 1.4, 5.0, 8.4 GHz
% 
% COLUMN 1 : log[S (Jy)]
% COLUMN 2 : log[dN/dS*S^2.5 (Jy^1.5/sr)] for SPIRALS      @ 0.61 GHz
% COLUMN 3 : log[dN/dS*S^2.5 (Jy^1.5/sr)] for STARBURSTS   @ 0.61 GHz
% COLUMN 4 : log[dN/dS*S^2.5 (Jy^1.5/sr)] for SPIRALS      @ 1.4 GHz
% COLUMN 5 : log[dN/dS*S^2.5 (Jy^1.5/sr)] for STARBURSTS   @ 1.4 GHz
% COLUMN 6 : log[dN/dS*S^2.5 (Jy^1.5/sr)] for SPIRALS      @ 5.0 GHz
% COLUMN 7 : log[dN/dS*S^2.5 (Jy^1.5/sr)] for STARBURSTS   @ 5.0 GHz
% COLUMN 8 : log[dN/dS*S^2.5 (Jy^1.5/sr)] for SPIRALS      @ 8.4 GHz
% COLUMN 9 : log[dN/dS*S^2.5 (Jy^1.5/sr)] for STARBURSTS   @ 8.4 GHz
% 
   -6.000000        -1.227933     -0.593828        -1.294907     -0.691308        -1.491440     -0.895213        -1.587054     -0.995091
   -5.950000        -1.160265     -0.532803        -1.238683     -0.635908        -1.451454     -0.850160        -1.552693     -0.955078
   -5.900000        -1.094627     -0.472721        -1.184479     -0.581509        -1.413561     -0.806610        -1.520412     -0.916784
   -5.850000        -1.031004     -0.413565        -1.132306     -0.528151        -1.377749     -0.764634        -1.490182     -0.880267
   -5.800000        -0.969389     -0.355329        -1.082170     -0.475882        -1.343998     -0.724293        -1.461976     -0.845585
   -5.750000        -0.909774     -0.298019        -1.034077     -0.424757        -1.312285     -0.685652        -1.435755     -0.812788
   -5.700000        -0.852160     -0.241651        -0.988032     -0.374833        -1.282579     -0.648769        -1.411476     -0.781927
   -5.650000        -0.796552     -0.186252        -0.944035     -0.326173        -1.254849     -0.613702        -1.389088     -0.753043
   -5.600000        -0.742954     -0.131855        -0.902084     -0.278840        -1.229047     -0.580502        -1.368541     -0.726179
   -5.550000        -0.691370     -0.078501        -0.862177     -0.232900        -1.205128     -0.549218        -1.349769     -0.701367
   -5.500000        -0.641807     -0.026236        -0.824298     -0.188419        -1.183037     -0.519894        -1.332702     -0.678637
   -5.450000        -0.594270      0.024884        -0.788439     -0.145464        -1.162709     -0.492570        -1.317277     -0.658013
   -5.400000        -0.548763      0.074803        -0.754576     -0.104096        -1.144084     -0.467280        -1.303412     -0.639515
   -5.350000        -0.505284      0.123460        -0.722684     -0.064380        -1.127090     -0.444055        -1.291020     -0.623156
   -5.300000        -0.463827      0.170790        -0.692734     -0.026376        -1.111654     -0.422918        -1.280031     -0.608948
   -5.250000        -0.424387      0.216730        -0.664687      0.009859        -1.097685     -0.403890        -1.270343     -0.596894
   -5.200000        -0.386950      0.261215        -0.638504      0.044274        -1.085114     -0.386984        -1.261883     -0.586994
   -5.150000        -0.351498      0.304176        -0.614136      0.076818        -1.073848     -0.372212        -1.254531     -0.579241
   -5.100000        -0.318011      0.345554        -0.591529      0.107445        -1.063794     -0.359579        -1.248234     -0.573627
   -5.050000        -0.286462      0.385286        -0.570636      0.136115        -1.054885     -0.349085        -1.242861     -0.570138
   -5.000000        -0.256815      0.423311        -0.551383      0.162790        -1.046998     -0.340724        -1.238363     -0.568760
   -4.950000        -0.229036      0.459573        -0.533706      0.187439        -1.040076     -0.334485        -1.234610     -0.569499
   -4.900000        -0.203082      0.494020        -0.517540      0.210036        -1.034010     -0.330360        -1.231552     -0.572434
   -4.850000        -0.178902      0.526601        -0.502805      0.230560        -1.028737     -0.328330        -1.229090     -0.577788
   -4.800000        -0.156441      0.557274        -0.489422      0.248992        -1.024141     -0.328403        -1.227154     -0.585897
   -4.750000        -0.135650      0.585996        -0.477313      0.265319        -1.020192     -0.330650        -1.225658     -0.596973
   -4.700000        -0.116463      0.612730        -0.466396      0.279537        -1.016786     -0.335283        -1.224588     -0.611039
   -4.650000        -0.098816      0.637444        -0.456586      0.291643        -1.013843     -0.342596        -1.223803     -0.627961
   -4.600000        -0.082633      0.660112        -0.447797      0.301637        -1.011320     -0.352755        -1.223292     -0.647557
   -4.550000        -0.067849      0.680712        -0.439950      0.309527        -1.009185     -0.365782        -1.223038     -0.669682
   -4.500000        -0.054380      0.699226        -0.432965      0.315327        -1.007332     -0.381596        -1.222932     -0.694303
   -4.450000        -0.042159      0.715640        -0.426741      0.319050        -1.005761     -0.400088        -1.222948     -0.721498
   -4.400000        -0.031086      0.729947        -0.421233      0.320698        -1.004412     -0.421147        -1.223128     -0.752274
   -4.350000        -0.021105      0.742145        -0.416353      0.320242        -1.003216     -0.444707        -1.223404     -0.787531
   -4.300000        -0.012121      0.752234        -0.412015      0.317566        -1.002178     -0.470745        -1.223696     -0.827093
   -4.250000        -0.004045      0.760220        -0.408167      0.312418        -1.001359     -0.499952        -1.223997     -0.869887
   -4.200000         0.003186      0.766115        -0.404775      0.304552        -1.000613     -0.533350        -1.224324     -0.914281
   -4.150000         0.009652      0.769932        -0.401746      0.293870        -0.999929     -0.570954        -1.224633     -0.958538
   -4.100000         0.015450      0.771672        -0.399017      0.280417        -0.999294     -0.611934        -1.224983     -1.001198
   -4.050000         0.020614      0.771296        -0.396623      0.264324        -0.998745     -0.654870        -1.225352     -1.041278
   -4.000000         0.025236      0.768675        -0.394435      0.245740        -0.998242     -0.698080        -1.225676     -1.078267
   -3.950000         0.029399      0.763560        -0.392451      0.224773        -0.997860     -0.739995        -1.225971     -1.112052
   -3.900000         0.033115      0.755733        -0.390705      0.201476        -0.997489     -0.779481        -1.226248     -1.142772
   -3.850000         0.036462      0.745117        -0.389094      0.175750        -0.997132     -0.815981        -1.226473     -1.170741
   -3.800000         0.039517      0.731755        -0.387579      0.146566        -0.996815     -0.849405        -1.226618     -1.196282
   -3.750000         0.042243      0.715763        -0.386167      0.113176        -0.996521     -0.879960        -1.226730     -1.219778
   -3.700000         0.044777      0.697273        -0.384860      0.075865        -0.996222     -0.907964        -1.226936     -1.241476
   -3.650000         0.047139      0.676392        -0.383685      0.035807        -0.995908     -0.933710        -1.227031     -1.261587
   -3.600000         0.049240      0.653168        -0.382612     -0.005390        -0.995673     -0.957464        -1.227086     -1.280260
   -3.550000         0.051201      0.627506        -0.381593     -0.046147        -0.995494     -0.979416        -1.227164     -1.297646
   -3.500000         0.053079      0.598437        -0.380595     -0.085244        -0.995258     -0.999746        -1.227115     -1.313784
   -3.450000         0.054867      0.565302        -0.379651     -0.121962        -0.995059     -1.018595        -1.227108     -1.328842
   -3.400000         0.056562      0.528287        -0.378781     -0.156022        -0.994865     -1.036091        -1.226995     -1.342820
   -3.350000         0.058151      0.488337        -0.377907     -0.187423        -0.994634     -1.052402        -1.227018     -1.355808
   -3.300000         0.059604      0.446893        -0.377059     -0.216322        -0.994441     -1.067548        -1.227079     -1.367922
   -3.250000         0.061010      0.405509        -0.376324     -0.242934        -0.994244     -1.081679        -1.227137     -1.379174
   -3.200000         0.062382      0.365516        -0.375652     -0.267484        -0.994172     -1.094827        -1.227175     -1.389629
   -3.150000         0.063713      0.327786        -0.374935     -0.290150        -0.994119     -1.107066        -1.227143     -1.399347
   -3.100000         0.064955      0.292742        -0.374230     -0.311125        -0.994053     -1.118466        -1.227302     -1.408438
   -3.050000         0.066196      0.260448        -0.373626     -0.330583        -0.993960     -1.129101        -1.227517     -1.416911
   -3.000000         0.067404      0.230781        -0.373022     -0.348662        -0.993853     -1.139027        -1.227587     -1.424777
   -2.950000         0.068514      0.203520        -0.372483     -0.365496        -0.994041     -1.148273        -1.227589     -1.432076
   -2.900000         0.069519      0.178405        -0.371977     -0.381243        -0.994193     -1.156876        -1.227393     -1.439022
   -2.850000         0.070571      0.155248        -0.371477     -0.395927        -0.994231     -1.164890        -1.226946     -1.445447
   -2.800000         0.071594      0.133838        -0.370990     -0.409700        -0.994237     -1.172468        -1.226188     -1.451496
   -2.750000         0.072520      0.114001        -0.370459     -0.422568        -0.993992     -1.179604        -1.225209     -1.457338
   -2.700000         0.073420      0.095592        -0.369958     -0.434588        -0.993599     -1.186239        -1.224005     -1.462681
   -2.650000         0.074236      0.078486        -0.369577     -0.445802        -0.992804     -1.192679        -1.222566     -1.468035
   -2.600000         0.074999      0.062530        -0.369383     -0.456257        -0.991908     -1.198583        -1.221062     -1.472986
   -2.550000         0.075738      0.047678        -0.369236     -0.465994        -0.990723     -1.204352        -1.219448     -1.477717
   -2.500000         0.076452      0.033805        -0.369028     -0.475033        -0.989279     -1.209633        -1.217985     -1.482478
   -2.450000         0.077198      0.020875        -0.368826     -0.483402        -0.987719     -1.214885        -1.216986     -1.486600
   -2.400000         0.077909      0.008823        -0.368635     -0.491148        -0.986032     -1.219548        -1.216229     -1.491240
   -2.350000         0.078491     -0.002422        -0.368293     -0.498436        -0.984680     -1.224523        -1.215891     -1.495733
   -2.300000         0.078866     -0.012904        -0.367739     -0.505280        -0.983629     -1.228981        -1.216276     -1.499473
   -2.250000         0.079179     -0.022698        -0.367016     -0.511589        -0.982808     -1.233343        -1.217206     -1.504050
   -2.200000         0.079544     -0.031812        -0.365963     -0.517683        -0.982455     -1.237996        -1.218787     -1.508975
   -2.150000         0.079896     -0.040276        -0.364512     -0.523256        -0.982713     -1.242052        -1.221225     -1.513482
   -2.100000         0.080224     -0.048135        -0.362873     -0.528686        -0.983500     -1.246171        -1.225000     -1.517589
   -2.050000         0.080699     -0.055512        -0.361217     -0.533651        -0.984921     -1.251096        -1.229924     -1.523403
   -2.000000         0.081374     -0.062469        -0.359591     -0.538598        -0.987369     -1.255866        -1.236262     -1.530098
   -1.950000         0.082213     -0.068912        -0.358087     -0.542997        -0.990999     -1.259830        -1.244123     -1.536808
   -1.900000         0.083373     -0.075127        -0.356649     -0.547728        -0.995811     -1.264896        -1.253729     -1.542885
   -1.850000         0.084925     -0.080859        -0.355502     -0.551946        -1.001915     -1.271230        -1.265611     -1.549223
   -1.800000         0.086662     -0.086408        -0.354845     -0.556075        -1.009516     -1.277908        -1.279880     -1.558910
   -1.750000         0.088407     -0.091552        -0.354583     -0.560518        -1.018970     -1.284159        -1.296605     -1.570849
   -1.700000         0.090121     -0.096609        -0.354934     -0.564419        -1.030719     -1.289689        -1.316010     -1.583791
   -1.650000         0.091712     -0.101129        -0.356248     -0.568343        -1.044669     -1.298115        -1.338311     -1.596613
   -1.600000         0.093231     -0.105929        -0.358385     -0.573096        -1.061048     -1.309239        -1.363711     -1.608788
   -1.550000         0.094448     -0.110186        -0.361402     -0.577724        -1.080083     -1.321894        -1.392400     -1.620496
   -1.500000         0.095179     -0.114520        -0.365453     -0.581572        -1.101991     -1.334841        -1.424550     -1.634860
   -1.450000         0.095511     -0.119053        -0.370805     -0.586426        -1.126978     -1.347274        -1.460317     -1.657087
   -1.400000         0.095221     -0.122941        -0.377980     -0.592612        -1.155235     -1.359095        -1.499838     -1.685179
   -1.350000         0.093959     -0.127050        -0.386816     -0.599180        -1.186938     -1.371238        -1.543504     -1.716377
   -1.300000         0.091885     -0.131911        -0.397539     -0.605354        -1.222383     -1.390495        -1.591123     -1.747891
   -1.250000         0.088928     -0.136566        -0.410379     -0.610813        -1.261729     -1.416369        -1.642775     -1.777884
   -1.200000         0.084936     -0.140397        -0.425562     -0.619051        -1.304918     -1.446533        -1.698518     -1.805969
   -1.150000         0.079620     -0.145596        -0.443321     -0.630012        -1.352053     -1.478099        -1.758391     -1.832930
   -1.100000         0.072500     -0.151943        -0.463973     -0.642564        -1.403213     -1.508741        -1.822403     -1.860036
   -1.050000         0.063718     -0.158575        -0.487934     -0.655463        -1.458462     -1.537470        -1.890534     -1.888446
   -1.000000         0.053049     -0.164743        -0.515094     -0.667874        -1.517838     -1.564662        -1.962721     -1.918951
   -0.950000         0.040264     -0.170307        -0.545634     -0.679668        -1.581356     -1.591471        -2.038842     -1.951982
   -0.900000         0.025133     -0.178839        -0.579719     -0.691600        -1.648999     -1.619151        -2.118690     -2.003246
   -0.850000         0.007428     -0.190081        -0.617483     -0.710451        -1.720709     -1.648654        -2.201936     -2.092419
   -0.800000        -0.013203     -0.202779        -0.659052     -0.736015        -1.796372     -1.680546        -2.288064     -2.220469
   -0.750000        -0.037113     -0.215699        -0.704535     -0.766016        -1.875793     -1.719269        -2.376291     -2.389068
   -0.700000        -0.064220     -0.228077        -0.754021     -0.797566        -1.958658     -1.792644        -2.465440     -2.597940
   -0.650000        -0.094711     -0.239864        -0.807581     -0.828284        -2.044478     -1.903796        -2.553773     -2.842617
   -0.600000        -0.128744     -0.252259        -0.865263     -0.857105        -2.132505     -2.054958        -2.638823     -3.108475
   -0.550000        -0.166457     -0.271996        -0.927091     -0.884345        -2.221616     -2.246841        -2.717271     -3.359124
   -0.500000        -0.207975     -0.298246        -0.993061     -0.911137        -2.310145     -2.477210        -2.785050     -3.534060
   -0.450000        -0.253407     -0.328610        -1.063133     -0.938741        -2.395718     -2.736884        -2.837709     -3.595863
   -0.400000        -0.302843     -0.360200        -1.137217     -0.968128        -2.475114     -3.000378        -2.871374     -3.573515
   -0.350000        -0.356353     -0.390758        -1.215152     -0.999884        -2.544339     -3.215362        -2.883845     -3.514075
   -0.300000        -0.413985     -0.419388        -1.296676     -1.037517        -2.598949     -3.325626        -2.875397     -3.442629
   -0.250000        -0.475764     -0.446537        -1.381400     -1.109006        -2.634946     -3.332902        -2.848370     -3.367616
   -0.200000        -0.541687     -0.473383        -1.468745     -1.218125        -2.649889     -3.284811        -2.806373     -3.291226
   -0.150000        -0.611713     -0.501172        -1.557659     -1.367168        -2.643753     -3.216815        -2.753239     -3.213912
   -0.100000        -0.685752     -0.530829        -1.646708     -1.556949        -2.618693     -3.142863        -2.692440     -3.135600
   -0.050000        -0.763646     -0.562899        -1.733811     -1.785452        -2.578216     -3.066968        -2.626387     -3.056168
    0.000000        -0.845132     -0.603179        -1.816086     -2.044031        -2.526180     -2.990055        -2.556788     -2.975531