% 
% DIFFERENTIAL SOURCE COUNTS OF SPIRALS & STARBURSTS @ 150GHz
% 
% COLUMN 1 : log10[S (Jy)]
% COLUMN 2 : log10[dN/dlgS (deg^{-2})] for SPIRALS 
% COLUMN 3 : log10[dN/dlgS (deg^{-2})] for STARBURSTS 
% 
   -6.000000        4.548394      5.245428
   -5.900000        4.541573      5.235726
   -5.800000        4.534863      5.226293
   -5.700000        4.528291      5.217197
   -5.600000        4.521885      5.208526
   -5.500000        4.515689      5.200392
   -5.400000        4.509753      5.192937
   -5.300000        4.504137      5.186338
   -5.200000        4.498927      5.180817
   -5.100000        4.494221      5.176641
   -5.000000        4.490149      5.174122
   -4.900000        4.486872      5.173608
   -4.800000        4.484584      5.175451
   -4.700000        4.483522      5.179956
   -4.600000        4.483961      5.187299
   -4.500000        4.486198      5.197428
   -4.400000        4.490527      5.209958
   -4.300000        4.497189      5.224121
   -4.200000        4.506291      5.238793
   -4.100000        4.517704      5.252629
   -4.000000        4.530967      5.264266
   -3.900000        4.545233      5.272516
   -3.800000        4.559290      5.276504
   -3.700000        4.571687      5.275701
   -3.600000        4.580919      5.269889
   -3.500000        4.585605      5.259083
   -3.400000        4.584612      5.243436
   -3.300000        4.577078      5.223152
   -3.200000        4.562388      5.198418
   -3.100000        4.540111      5.169349
   -3.000000        4.509937      5.135956
   -2.900000        4.471648      5.098135
   -2.800000        4.425087      5.055666
   -2.700000        4.370162      5.008229
   -2.600000        4.306840      4.955433
   -2.500000        4.235170      4.896836
   -2.400000        4.155266      4.831971
   -2.300000        4.067332      4.760383
   -2.200000        3.971652      4.681643
   -2.100000        3.868596      4.595367
   -2.000000        3.758620      4.501228
   -1.900000        3.642242      4.398969
   -1.800000        3.520059      4.288395
   -1.700000        3.392711      4.169391
   -1.600000        3.260864      4.041917
   -1.500000        3.125203      3.906003
   -1.400000        2.986401      3.761728
   -1.300000        2.845064      3.608888
   -1.200000        2.701714      3.446079
   -1.100000        2.556861      3.272084
   -1.000000        2.410870      3.087376
   -0.900000        2.264060      2.892825
   -0.800000        2.116669      2.687367
   -0.700000        1.968760      2.465933
   -0.600000        1.820642      2.233180
   -0.500000        1.672246      2.000913
   -0.400000        1.523627      1.777709
   -0.300000        1.374859      1.565529
   -0.200000        1.226077      1.362970
   -0.100000        1.077061      1.168231
    0.000000        0.928008      0.979823
    0.100000        0.778912      0.796705
    0.200000        0.629726      0.617928
    0.300000        0.480265      0.442840
    0.400000        0.330926      0.270920
    0.500000        0.181467      0.101728
    0.600000        0.031868     -0.064997
    0.700000       -0.117713     -0.229649
    0.800000       -0.267069     -0.392311
    0.900000       -0.416211     -0.553449
    1.000000       -0.564557     -0.713378
    1.100000       -0.712334     -0.872250
    1.200000       -0.860294     -1.030210
    1.300000       -1.009260     -1.188111
    1.400000       -1.160189     -1.346493
    1.500000       -1.315401     -1.504465
    1.600000       -1.476025     -1.665622
    1.700000       -1.643711     -1.828024
    1.800000       -1.820906     -1.991625
    1.900000       -2.008520     -2.164795
    2.000000       -2.208124     -2.339367
    2.100000       -2.421327     -2.512648
    2.200000       -2.649550     -2.707517
    2.300000       -2.893099     -2.918430
    2.400000       -3.152537     -3.126568
    2.500000       -3.427990     -3.329155
    2.600000       -3.718935     -3.534803
    2.700000       -4.023590     -3.754900
    2.800000       -4.337552     -4.089863
    2.900000       -4.651067     -4.578714
    3.000000       -4.945055     -5.196845
    3.100000       -5.190612     -5.748719
    3.200000       -5.362512     -5.950395
    3.300000       -5.461250     -5.979184
    3.400000       -5.510114     -5.985572
    3.500000       -5.533220     -5.989274
    3.600000       -5.545014     -5.991113
    3.700000       -5.551880     -5.990750
    3.800000       -5.556302     -5.987803
    3.900000       -5.559143     -5.981951
    4.000000       -5.560555     -5.973037
    4.100000       -5.560288     -5.961204
    4.200000       -5.558177     -5.947056
    4.300000       -5.554160     -5.931778
    4.400000       -5.548411     -5.917152
    4.500000       -5.541496     -5.905408
    4.600000       -5.534523     -5.898896
    4.700000       -5.529250     -5.899965
    4.800000       -5.528046     -5.909971
    4.900000       -5.533687     -5.929708
    5.000000       -5.549831     -5.959745
    5.100000       -5.578353     -5.999581
    5.200000       -5.621046     -6.049372
    5.300000       -5.680351     -6.108841
    5.400000       -5.755280     -6.177743
    5.500000       -5.847989     -6.256784
    5.600000       -5.956948     -6.345929
    5.700000       -6.083211     -6.445353
    5.800000       -6.226968     -6.555423
    5.900000       -6.387849     -6.676487
    6.000000       -6.566221     -6.809217